Date,Close
2013-08-05,60.119998931884766
2013-08-12,59.290000915527344
2013-08-19,59.84000015258789
2013-08-26,58.810001373291016
2013-09-02,58.5099983215332
2013-09-09,59.0099983215332
2013-09-16,60.2400016784668
2013-09-23,59.650001525878906
2013-09-30,60.130001068115234
2013-10-07,61.45000076293945
2013-10-14,63.189998626708984
2013-10-21,64.27999877929688
2013-10-28,63.88999938964844
2013-11-04,64.25
2013-11-11,64.94000244140625
2013-11-18,64.19999694824219
2013-11-25,64.91999816894531
2013-12-02,64.69000244140625
2013-12-09,63.70000076293945
2013-12-16,65.36000061035156
2013-12-23,66.72000122070312
2013-12-30,66.8499984741211
2014-01-06,68.05000305175781
2014-01-13,67.23999786376953
2014-01-20,64.4800033569336
2014-01-27,63.79999923706055
2014-02-03,63.4900016784668
2014-02-10,64.7699966430664
2014-02-17,64.63999938964844
2014-02-24,66.16999816894531
2014-03-03,65.7300033569336
2014-03-10,64.51000213623047
2014-03-17,64.75
2014-03-24,64.2699966430664
2014-03-31,66.04000091552734
2014-04-07,64.72000122070312
2014-04-14,66.56999969482422
2014-04-21,67.13999938964844
2014-04-28,66.68000030517578
2014-05-05,66.58999633789062
2014-05-12,66.13999938964844
2014-05-19,65.98999786376953
2014-05-26,66.58999633789062
2014-06-02,67.11000061035156
2014-06-09,66.41000366210938
2014-06-16,66.62999725341797
2014-06-23,67.01000213623047
2014-06-30,66.97000122070312
2014-07-07,66.3499984741211
2014-07-14,66.05000305175781
2014-07-21,63.5
2014-07-28,61.130001068115234
2014-08-04,62.36000061035156
2014-08-11,63.29999923706055
2014-08-18,63.619998931884766
2014-08-25,64.1500015258789
2014-09-01,65.19999694824219
2014-09-08,62.70000076293945
2014-09-15,61.15999984741211
2014-09-22,61.380001068115234
2014-09-29,60.11000061035156
2014-10-06,57.5
2014-10-13,58.70000076293945
2014-10-20,61.91999816894531
2014-10-27,62.2400016784668
2014-11-03,64.7699966430664
2014-11-10,64.83000183105469
2014-11-17,65.0999984741211
2014-11-24,65.25
2014-12-01,66.26000213623047
2014-12-08,64.63999938964844
2014-12-15,67.12999725341797
2014-12-22,67.86000061035156
2014-12-29,66.6500015258789
2015-01-05,65.47000122070312
2015-01-12,64.47000122070312
2015-01-19,63.7599983215332
2015-01-26,63.11000061035156
2015-02-02,64.33000183105469
2015-02-09,64.55999755859375
2015-02-16,66.16999816894531
2015-02-23,65.87000274658203
2015-03-02,64.2699966430664
2015-03-09,63.099998474121094
2015-03-16,63.22999954223633
2015-03-23,63.18000030517578
2015-03-30,63.150001525878906
2015-04-06,63.4900016784668
2015-04-13,62.84000015258789
2015-04-20,63.290000915527344
2015-04-27,64.05000305175781
2015-05-04,63.15999984741211
2015-05-11,65.19999694824219
2015-05-18,64.5
2015-05-25,63.77000045776367
2015-06-01,64.27999877929688
2015-06-08,64.58000183105469
2015-06-15,65.29000091552734
2015-06-22,64.4800033569336
2015-06-29,63.790000915527344
2015-07-06,63.68000030517578
2015-07-13,63.93000030517578
2015-07-20,61.75
2015-07-27,67.79000091552734
2015-08-03,68.79000091552734
2015-08-10,69.87000274658203
2015-08-17,67.61000061035156
2015-08-24,67.70999908447266
2015-08-31,67.2699966430664
2015-09-07,67.4000015258789
2015-09-14,67.1500015258789
2015-09-21,65.52999877929688
2015-09-28,67.9800033569336
2015-10-05,70.26000213623047
2015-10-12,69.83999633789062
2015-10-19,71.4000015258789
2015-10-26,73.55999755859375
2015-11-02,73.26000213623047
2015-11-09,71.5199966430664
2015-11-16,74.29000091552734
2015-11-23,75.01000213623047
2015-11-30,74.3499984741211
2015-12-07,72.86000061035156
2015-12-14,71.11000061035156
2015-12-21,73.30000305175781
2015-12-28,72.6500015258789
2016-01-04,69.87999725341797
2016-01-11,68.06999969482422
2016-01-18,68.25
2016-01-25,72.9000015258789
2016-02-01,71.12000274658203
2016-02-08,75.30000305175781
2016-02-15,72.87999725341797
2016-02-22,73.33000183105469
2016-02-29,76.0
2016-03-07,75.77999877929688
2016-03-14,76.88999938964844
2016-03-21,77.38999938964844
2016-03-28,79.08999633789062
2016-04-04,77.36000061035156
2016-04-11,79.25
2016-04-18,79.68000030517578
2016-04-25,76.0
2016-05-02,76.27999877929688
2016-05-09,76.97000122070312
2016-05-16,75.33000183105469
2016-05-23,77.13999938964844
2016-05-30,77.19999694824219
2016-06-06,78.19999694824219
2016-06-13,76.3499984741211
2016-06-20,76.75
2016-06-27,79.16999816894531
2016-07-04,79.79000091552734
2016-07-11,79.91999816894531
2016-07-18,80.45999908447266
2016-07-25,78.18000030517578
2016-08-01,76.58999633789062
2016-08-08,75.58000183105469
2016-08-15,76.77999877929688
2016-08-22,78.47000122070312
2016-08-29,79.16000366210938
2016-09-05,77.45999908447266
2016-09-12,77.5999984741211
2016-09-19,78.79000091552734
2016-09-26,77.41000366210938
2016-10-03,75.63999938964844
2016-10-10,76.02999877929688
2016-10-17,77.16000366210938
2016-10-24,73.0199966430664
2016-10-31,71.41000366210938
2016-11-07,71.8499984741211
2016-11-14,73.6500015258789
2016-11-21,76.06999969482422
2016-11-28,74.3499984741211
2016-12-05,74.75
2016-12-12,72.93000030517578
2016-12-19,73.61000061035156
2016-12-26,73.44999694824219
2017-01-02,73.5
2017-01-09,73.5
2017-01-16,71.63999938964844
2017-01-23,73.44000244140625
2017-01-30,73.77999877929688
2017-02-06,74.79000091552734
2017-02-13,73.9000015258789
2017-02-20,74.36000061035156
2017-02-27,76.04000091552734
2017-03-06,76.79000091552734
2017-03-13,77.08000183105469
2017-03-20,76.62000274658203
2017-03-27,76.98999786376953
2017-04-03,76.16000366210938
2017-04-10,75.80000305175781
2017-04-17,77.98999786376953
2017-04-24,80.30000305175781
2017-05-01,81.91000366210938
2017-05-08,82.43000030517578
2017-05-15,82.36000061035156
2017-05-22,84.37000274658203
2017-05-29,86.33000183105469
2017-06-05,85.6500015258789
2017-06-12,85.94999694824219
2017-06-19,86.80000305175781
2017-06-26,86.86000061035156
2017-07-03,88.08999633789062
2017-07-10,89.43000030517578
2017-07-17,89.51000213623047
2017-07-24,82.30999755859375
2017-07-31,82.36000061035156
2017-08-07,82.13999938964844
2017-08-14,82.1500015258789
2017-08-21,82.38999938964844
2017-08-28,83.87999725341797
2017-09-04,83.81999969482422
2017-09-11,84.70999908447266
2017-09-18,85.72000122070312
2017-09-25,86.30999755859375
2017-10-02,88.58000183105469
2017-10-09,88.83999633789062
2017-10-16,89.19999694824219
2017-10-23,87.93000030517578
2017-10-30,86.94000244140625
2017-11-06,84.91000366210938
2017-11-13,85.6500015258789
2017-11-20,86.25
2017-11-27,87.5999984741211
2017-12-04,87.9000015258789
2017-12-11,86.9800033569336
2017-12-18,85.9000015258789
2017-12-25,86.27999877929688
2018-01-01,86.91000366210938
2018-01-08,86.55999755859375
2018-01-15,88.61000061035156
2018-01-22,89.13999938964844
2018-01-29,85.80000305175781
2018-02-05,82.16000366210938
2018-02-12,91.83000183105469
2018-02-19,90.98999786376953
2018-02-26,89.68000030517578
2018-03-05,90.87000274658203
2018-03-12,90.1500015258789
2018-03-19,86.7699966430664
2018-03-26,89.83000183105469
2018-04-02,88.5
2018-04-09,92.75
2018-04-16,94.44000244140625
2018-04-23,93.45999908447266
2018-04-30,92.26000213623047
2018-05-07,94.29000091552734
2018-05-14,93.55999755859375
2018-05-21,94.08000183105469
2018-05-28,92.7699966430664
2018-06-04,93.66000366210938
2018-06-11,94.91999816894531
2018-06-18,92.62999725341797
2018-06-25,93.37999725341797
2018-07-02,94.08000183105469
2018-07-09,94.87000274658203
2018-07-16,95.77999877929688
2018-07-23,102.9000015258789
2018-07-30,104.0999984741211
2018-08-06,102.37999725341797
2018-08-13,102.76000213623047
2018-08-20,103.80000305175781
2018-08-27,104.70999908447266
2018-09-03,107.9000015258789
2018-09-10,111.97000122070312
2018-09-17,110.31999969482422
2018-09-24,107.73999786376953
2018-10-01,107.16999816894531
2018-10-08,101.6500015258789
2018-10-15,104.31999969482422
2018-10-22,100.36000061035156
2018-10-29,103.80000305175781
2018-11-05,104.29000091552734
2018-11-12,106.27999877929688
2018-11-19,103.9000015258789
2018-11-26,104.05000305175781
2018-12-03,99.7699966430664
2018-12-10,100.33999633789062
2018-12-17,93.55000305175781
2018-12-24,92.69999694824219
2018-12-31,91.06999969482422
2019-01-07,94.7300033569336
2019-01-14,97.69000244140625
2019-01-21,97.38999938964844
2019-01-28,99.55000305175781
2019-02-04,101.38999938964844
2019-02-11,101.94000244140625
2019-02-18,102.05000305175781
2019-02-25,100.80999755859375
2019-03-04,100.47000122070312
2019-03-11,103.05000305175781
2019-03-18,103.83000183105469
2019-03-25,106.38999938964844
2019-04-01,108.73999786376953
2019-04-08,110.30999755859375
2019-04-15,108.20999908447266
2019-04-22,111.41999816894531
2019-04-29,113.8499984741211
2019-05-06,113.5999984741211
2019-05-13,113.77999877929688
2019-05-20,112.93000030517578
2019-05-27,113.2699966430664
2019-06-03,121.91999816894531
2019-06-10,120.08999633789062
2019-06-17,119.37999725341797
2019-06-24,124.33999633789062
2019-07-01,124.61000061035156
2019-07-08,123.41000366210938
2019-07-15,123.4000015258789
2019-07-22,124.48999786376953
2019-07-29,118.0199966430664
2019-08-05,121.08000183105469
2019-08-12,120.25
2019-08-19,120.26000213623047
2019-08-26,122.22000122070312
2019-09-02,120.87999725341797
2019-09-09,118.4000015258789
2019-09-16,118.05000305175781
2019-09-23,118.66999816894531
2019-09-30,117.33000183105469
2019-10-07,116.33000183105469
2019-10-14,117.77999877929688
2019-10-21,117.87999725341797
2019-10-28,110.79000091552734
2019-11-04,109.0
2019-11-11,109.95999908447266
2019-11-18,110.12000274658203
2019-11-25,112.12000274658203
2019-12-02,112.08000183105469
2019-12-09,113.97000122070312
2019-12-16,114.95999908447266
2019-12-23,115.0199966430664
2019-12-30,114.04000091552734
2020-01-06,115.79000091552734
2020-01-13,117.31999969482422
2020-01-20,117.12000274658203
2020-01-27,115.51000213623047
2020-02-03,116.69999694824219
2020-02-10,116.66999816894531
2020-02-17,111.9800033569336
2020-02-24,101.06999969482422
2020-03-02,107.30000305175781
2020-03-09,96.38999938964844
2020-03-16,92.51000213623047
2020-03-23,94.0
2020-03-30,94.19000244140625
2020-04-06,107.2699966430664
2020-04-13,102.94000244140625
2020-04-20,104.12000274658203
2020-04-27,106.13999938964844
2020-05-04,107.52999877929688
2020-05-11,101.5
2020-05-18,105.0999984741211
2020-05-25,111.38999938964844
2020-06-01,113.4000015258789
2020-06-08,105.36000061035156
2020-06-15,107.5999984741211
2020-06-22,107.72000122070312
2020-06-29,114.97000122070312
2020-07-06,114.94999694824219
2020-07-13,119.4000015258789
2020-07-20,118.8499984741211
2020-07-27,115.19999694824219
2020-08-03,119.25
2020-08-10,118.48999786376953
2020-08-17,117.80000305175781
2020-08-24,118.12999725341797
2020-08-31,118.72000122070312
2020-09-07,118.36000061035156
2020-09-14,115.04000091552734
2020-09-21,112.0999984741211
2020-09-28,112.8499984741211
2020-10-05,116.80999755859375
2020-10-12,116.3499984741211
2020-10-19,118.3499984741211
2020-10-26,114.08999633789062
2020-11-02,123.5999984741211
2020-11-09,125.06999969482422
2020-11-16,127.80999755859375
2020-11-23,127.23999786376953
2020-11-30,127.68000030517578
2020-12-07,130.4499969482422
2020-12-14,134.10000610351562
2020-12-21,135.6999969482422
2020-12-28,136.88999938964844
2021-01-04,139.07000732421875
2021-01-11,138.8300018310547
2021-01-18,138.19000244140625
2021-01-25,132.97000122070312
2021-02-01,140.66000366210938
2021-02-08,144.6300048828125
2021-02-15,132.24000549316406
2021-02-22,130.07000732421875
2021-03-01,134.08999633789062
2021-03-08,140.77000427246094
2021-03-15,139.30999755859375
2021-03-22,144.82000732421875
2021-03-29,143.8699951171875
2021-04-05,145.1999969482422
2021-04-12,148.0800018310547
2021-04-19,151.4499969482422
2021-04-26,150.80999755859375
2021-05-03,157.55999755859375
2021-05-10,153.5399932861328
2021-05-17,149.6300048828125
2021-05-24,147.30999755859375
2021-05-31,145.55999755859375
2021-06-07,145.8300018310547
2021-06-14,140.10000610351562
2021-06-21,140.9199981689453
2021-06-28,140.41000366210938
2021-07-05,141.17999267578125
2021-07-12,139.0399932861328
2021-07-19,136.24000549316406
2021-07-26,128.9199981689453
2021-08-02,128.42999267578125
2021-08-09,133.0500030517578
2021-08-16,133.52000427246094
2021-08-23,134.52999877929688
2021-08-30,135.14999389648438
2021-09-06,125.83999633789062
2021-09-13,121.2300033569336
2021-09-20,120.36000061035156
2021-09-27,121.58000183105469
2021-10-04,124.51000213623047
2021-10-11,128.22000122070312
2021-10-18,127.7699966430664
2021-10-25,120.77999877929688
2021-11-01,131.5
2021-11-08,131.49000549316406
2021-11-15,130.14999389648438
2021-11-22,126.61000061035156
2021-11-29,118.80000305175781
2021-12-06,119.73999786376953
2021-12-13,115.88999938964844
2021-12-20,116.33000183105469
2021-12-27,122.4800033569336
2022-01-03,123.68000030517578
2022-01-10,121.18000030517578
2022-01-17,116.37999725341797
2022-01-24,115.05000305175781
2022-01-31,115.26000213623047
2022-02-07,113.70999908447266
2022-02-14,118.44000244140625
2022-02-21,120.97000122070312
2022-02-28,120.19000244140625
2022-03-07,112.30000305175781
2022-03-14,117.73999786376953
2022-03-21,117.23999786376953
2022-03-28,119.0199966430664
2022-04-04,121.41000366210938
2022-04-11,117.4000015258789
2022-04-18,116.62000274658203
2022-04-25,114.83000183105469
2022-05-02,111.2300033569336
2022-05-09,107.51000213623047
2022-05-16,99.72000122070312
2022-05-23,108.88999938964844
2022-05-30,108.80000305175781
2022-06-06,105.19999694824219
2022-06-13,97.5
2022-06-20,102.62000274658203
2022-06-27,104.48999786376953
2022-07-04,100.01000213623047
2022-07-11,100.01000213623047
2022-07-18,103.5999984741211
2022-07-25,107.76000213623047
2022-08-01,105.6500015258789
2022-08-08,111.08000183105469
2022-08-15,110.16000366210938
2022-08-22,104.41000366210938
2022-08-29,101.43000030517578
2022-09-05,106.41000366210938
2022-09-12,102.63999938964844
2022-09-19,98.08000183105469
2022-09-26,95.02999877929688
2022-10-03,93.9800033569336
2022-10-10,95.08000183105469
2022-10-17,97.5199966430664
2022-10-24,101.12999725341797
2022-10-31,98.7699966430664
2022-11-07,104.25
2022-11-14,106.04000091552734
2022-11-21,105.91000366210938
2022-11-28,108.05000305175781
2022-12-05,108.05999755859375
2022-12-12,107.44000244140625
2022-12-19,110.01000213623047
2022-12-26,109.9800033569336
2023-01-02,114.05999755859375
2023-01-09,113.97000122070312
2023-01-16,113.29000091552734
2023-01-23,112.7300033569336
2023-01-30,115.41999816894531
2023-02-06,109.20999908447266
2023-02-13,116.69000244140625
2023-02-20,114.7699966430664
2023-02-27,120.25
2023-03-06,112.55999755859375
2023-03-13,110.76000213623047
2023-03-20,112.97000122070312
2023-03-27,118.19000244140625
2023-04-03,119.05999755859375
2023-04-10,119.19999694824219
2023-04-17,120.58999633789062
2023-04-24,118.51000213623047
2023-05-01,121.69999694824219
2023-05-08,120.79000091552734
2023-05-15,119.08999633789062
2023-05-22,114.16000366210938
2023-05-29,114.16000366210938
2023-06-05,114.80999755859375
2023-06-12,117.1500015258789
2023-06-19,112.83000183105469
2023-06-26,115.86000061035156
2023-07-03,113.79000091552734
2023-07-10,118.3499984741211
2023-07-17,119.83999633789062
2023-07-24,123.77999877929688
2023-07-31,120.63999938964844
2023-08-07,121.29000091552734
