Date,Open,High,Low,Close,Volume
2013-08-05,59.84000015258789,60.61000061035156,58.959999084472656,60.119998931884766,245200
2013-08-12,59.880001068115234,60.58000183105469,59.02999877929688,59.290000915527344,476800
2013-08-19,59.2400016784668,60.040000915527344,58.77000045776367,59.84000015258789,551100
2013-08-26,59.900001525878906,60.41999816894531,58.43000030517578,58.810001373291016,695200
2013-09-02,59.43999862670898,59.77999877929688,57.400001525878906,58.5099983215332,785200
2013-09-09,58.70000076293945,59.93999862670898,58.29999923706055,59.0099983215332,828200
2013-09-16,59.709999084472656,60.56999969482422,59.16999816894531,60.2400016784668,1088100
2013-09-23,60.18999862670898,60.75,59.630001068115234,59.650001525878906,938900
2013-09-30,59.25,61.65999984741211,59.150001525878906,60.130001068115234,1430500
2013-10-07,59.77000045776367,61.5099983215332,59.18999862670898,61.45000076293945,1142500
2013-10-14,61.08000183105469,63.290000915527344,60.790000915527344,63.18999862670898,644300
2013-10-21,63.18000030517578,64.36000061035156,63.0099983215332,64.27999877929688,576500
2013-10-28,64.12000274658203,64.69999694824219,62.209999084472656,63.88999938964844,1093400
2013-11-04,63.93999862670898,64.7699966430664,63.06999969482422,64.25,835800
2013-11-11,64.19000244140625,65.2300033569336,63.93999862670898,64.94000244140625,728100
2013-11-18,65.08999633789062,65.0999984741211,63.75,64.19999694824219,1686500
2013-11-25,64.41999816894531,65.25,63.720001220703125,64.91999816894531,1297700
2013-12-02,64.95999908447266,65.7300033569336,63.09999847412109,64.69000244140625,889400
2013-12-09,64.56999969482422,64.69999694824219,63.13999938964844,63.70000076293945,887700
2013-12-16,64.08999633789062,65.45999908447266,63.81999969482422,65.36000061035156,1108700
2013-12-23,65.69999694824219,67.0999984741211,65.23999786376953,66.72000122070312,501000
2013-12-30,66.76000213623047,68.01000213623047,66.48999786376953,66.8499984741211,836900
2014-01-06,67.12999725341797,68.68000030517578,66.25,68.05000305175781,2081300
2014-01-13,68.19000244140625,68.77999877929688,67.0,67.23999786376953,3814000
2014-01-20,67.56999969482422,67.7300033569336,64.44000244140625,64.4800033569336,1409400
2014-01-27,64.16000366210938,64.62000274658203,62.84000015258789,63.79999923706055,1681400
2014-02-03,63.86000061035156,64.0,61.18000030517578,63.4900016784668,1806700
2014-02-10,63.20000076293945,64.94000244140625,62.869998931884766,64.7699966430664,898800
2014-02-17,64.86000061035156,65.4800033569336,64.26000213623047,64.63999938964844,823100
2014-02-24,64.69999694824219,66.73999786376953,64.25,66.16999816894531,1018700
2014-03-03,65.52999877929688,66.37000274658203,65.0999984741211,65.7300033569336,952900
2014-03-10,65.70999908447266,65.86000061035156,63.9900016784668,64.51000213623047,832400
2014-03-17,64.72000122070312,65.76000213623047,64.47000122070312,64.75,905700
2014-03-24,64.54000091552734,65.22000122070312,63.11000061035156,64.2699966430664,702300
2014-03-31,64.69999694824219,67.51000213623047,64.45999908447266,66.04000091552734,1159200
2014-04-07,65.87000274658203,67.3499984741211,64.54000091552734,64.72000122070312,909600
2014-04-14,65.12999725341797,66.88999938964844,64.58999633789062,66.56999969482422,993300
2014-04-21,66.5199966430664,67.77999877929688,66.2300033569336,67.13999938964844,940900
2014-04-28,66.91000366210938,67.72000122070312,66.31999969482422,66.68000030517578,1211400
2014-05-05,66.13999938964844,67.26000213623047,65.63999938964844,66.58999633789062,1018600
2014-05-12,66.95999908447266,67.83999633789062,65.52999877929688,66.13999938964844,831000
2014-05-19,66.1500015258789,67.18000030517578,65.33999633789062,65.98999786376953,765400
2014-05-26,66.13999938964844,66.66000366210938,65.44000244140625,66.58999633789062,703700
2014-06-02,66.72000122070312,67.30000305175781,65.80000305175781,67.11000061035156,714100
2014-06-09,67.02999877929688,67.58000183105469,64.94999694824219,66.41000366210938,689500
2014-06-16,66.30999755859375,67.0999984741211,65.41000366210938,66.62999725341797,933200
2014-06-23,66.80999755859375,67.01000213623047,65.79000091552734,67.01000213623047,1051800
2014-06-30,66.88999938964844,68.0,66.55000305175781,66.97000122070312,673300
2014-07-07,66.75,66.91999816894531,65.45999908447266,66.3499984741211,838100
2014-07-14,66.75,67.06999969482422,64.66000366210938,66.05000305175781,1278900
2014-07-21,65.68000030517578,65.68000030517578,63.2400016784668,63.5,1677800
2014-07-28,63.11000061035156,63.2400016784668,60.56999969482422,61.130001068115234,1696600
2014-08-04,61.29999923706055,62.41999816894531,60.52000045776367,62.36000061035156,1324600
2014-08-11,62.68000030517578,63.70000076293945,61.77000045776367,63.29999923706055,1023800
2014-08-18,63.59999847412109,64.38999938964844,63.34000015258789,63.619998931884766,979600
2014-08-25,64.01000213623047,64.2300033569336,63.380001068115234,64.1500015258789,615800
2014-09-01,64.37999725341797,65.19999694824219,63.91999816894531,65.19999694824219,811300
2014-09-08,65.01000213623047,65.37000274658203,62.47999954223633,62.70000076293945,977800
2014-09-15,62.880001068115234,63.040000915527344,61.13999938964844,61.15999984741211,1683200
2014-09-22,61.09999847412109,61.5,60.56999969482422,61.380001068115234,1567500
2014-09-29,60.86000061035156,61.84000015258789,58.90999984741211,60.11000061035156,1657500
2014-10-06,60.25,60.650001525878906,57.43999862670898,57.5,1610700
2014-10-13,57.40999984741211,59.06999969482422,55.59000015258789,58.70000076293945,3507400
2014-10-20,58.709999084472656,62.369998931884766,58.459999084472656,61.91999816894531,1717000
2014-10-27,61.369998931884766,62.68999862670898,58.36000061035156,62.2400016784668,2275800
2014-11-03,61.72999954223633,64.8499984741211,61.34000015258789,64.7699966430664,1964900
2014-11-10,64.83999633789062,65.87000274658203,64.5999984741211,64.83000183105469,1209200
2014-11-17,64.95999908447266,65.80999755859375,64.36000061035156,65.0999984741211,1266100
2014-11-24,65.20999908447266,65.5999984741211,64.91000366210938,65.25,576900
2014-12-01,64.81999969482422,66.9000015258789,64.52999877929688,66.26000213623047,1120400
2014-12-08,66.19000244140625,66.58000183105469,64.58999633789062,64.63999938964844,861100
2014-12-15,64.86000061035156,67.2699966430664,63.400001525878906,67.12999725341797,1506500
2014-12-22,67.41000366210938,68.16999816894531,66.83000183105469,67.86000061035156,624700
2014-12-29,67.58999633789062,68.66999816894531,65.91000366210938,66.6500015258789,678700
2015-01-05,66.19999694824219,66.69999694824219,63.47999954223633,65.47000122070312,1673100
2015-01-12,65.48999786376953,66.52999877929688,63.369998931884766,64.47000122070312,1169100
2015-01-19,64.30000305175781,65.06999969482422,63.650001525878906,63.7599983215332,1009900
2015-01-26,63.58000183105469,64.01000213623047,61.38999938964844,63.11000061035156,1801300
2015-02-02,63.22999954223633,66.5999984741211,62.709999084472656,64.33000183105469,2585700
2015-02-09,64.04000091552734,64.73999786376953,63.18000030517578,64.55999755859375,2187500
2015-02-16,64.12999725341797,66.2699966430664,64.12999725341797,66.16999816894531,1121100
2015-02-23,65.91999816894531,66.4000015258789,65.44999694824219,65.87000274658203,1155100
2015-03-02,65.87000274658203,66.55999755859375,63.91999816894531,64.2699966430664,1193700
2015-03-09,64.12999725341797,64.69999694824219,62.709999084472656,63.09999847412109,1614600
2015-03-16,63.43000030517578,64.54000091552734,62.56999969482422,63.22999954223633,1894100
2015-03-23,63.34999847412109,63.90999984741211,62.709999084472656,63.18000030517578,1571300
2015-03-30,63.40999984741211,63.97999954223633,62.81999969482422,63.150001525878906,1363000
2015-04-06,62.91999816894531,63.56999969482422,62.7599983215332,63.4900016784668,1242400
2015-04-13,63.04999923706055,63.72999954223633,61.97999954223633,62.84000015258789,1602800
2015-04-20,63.06999969482422,63.470001220703125,62.43999862670898,63.290000915527344,1277700
2015-04-27,63.380001068115234,64.93000030517578,62.0,64.05000305175781,2775500
2015-05-04,64.33999633789062,64.9800033569336,62.61000061035156,63.15999984741211,3444100
2015-05-11,62.970001220703125,65.41999816894531,62.380001068115234,65.19999694824219,2464800
2015-05-18,65.12000274658203,66.30999755859375,64.33000183105469,64.5,1443900
2015-05-25,64.4800033569336,64.8499984741211,63.650001525878906,63.77000045776367,1046900
2015-06-01,64.0199966430664,64.62999725341797,63.310001373291016,64.27999877929688,1776300
2015-06-08,64.23999786376953,64.81999969482422,63.560001373291016,64.58000183105469,1437800
2015-06-15,64.05999755859375,65.83000183105469,63.619998931884766,65.29000091552734,1887800
2015-06-22,65.63999938964844,65.63999938964844,64.02999877929688,64.4800033569336,1432700
2015-06-29,64.1500015258789,64.55999755859375,63.560001373291016,63.790000915527344,1373300
2015-07-06,63.45000076293945,64.44999694824219,63.16999816894531,63.68000030517578,1377300
2015-07-13,63.77999877929688,64.55000305175781,63.630001068115234,63.93000030517578,1192500
2015-07-20,63.81999969482422,64.08999633789062,61.5,61.75,1191100
2015-07-27,61.220001220703125,68.70999908447266,60.72999954223633,67.79000091552734,3161800
2015-08-03,67.77999877929688,69.33999633789062,66.54000091552734,68.79000091552734,1422900
2015-08-10,69.01000213623047,70.0999984741211,67.93000030517578,69.87000274658203,1197200
2015-08-17,69.62000274658203,70.33999633789062,67.04000091552734,67.61000061035156,1195900
2015-08-24,64.80000305175781,68.08999633789062,64.66000366210938,67.70999908447266,1594200
2015-08-31,67.38999938964844,67.79000091552734,65.5,67.2699966430664,1251700
2015-09-07,67.75,68.62000274658203,66.08000183105469,67.4000015258789,1435300
2015-09-14,67.27999877929688,69.37999725341797,66.70999908447266,67.1500015258789,1539900
2015-09-21,67.4800033569336,68.33999633789062,64.83999633789062,65.52999877929688,1411800
2015-09-28,65.13999938964844,68.0,63.619998931884766,67.9800033569336,1761200
2015-10-05,68.43000030517578,70.69999694824219,67.61000061035156,70.26000213623047,1237100
2015-10-12,70.30999755859375,70.87999725341797,68.94999694824219,69.83999633789062,1072800
2015-10-19,69.61000061035156,72.16999816894531,69.54000091552734,71.4000015258789,1126500
2015-10-26,71.30000305175781,75.25,69.62999725341797,73.55999755859375,2185700
2015-11-02,74.7699966430664,75.95999908447266,72.68000030517578,73.26000213623047,1661900
2015-11-09,73.05000305175781,73.62000274658203,70.56999969482422,71.5199966430664,1553900
2015-11-16,71.87000274658203,74.55000305175781,71.1500015258789,74.29000091552734,846500
2015-11-23,74.23999786376953,75.55999755859375,73.13999938964844,75.01000213623047,795600
2015-11-30,75.16999816894531,75.48999786376953,72.91999816894531,74.3499984741211,833100
2015-12-07,74.02999877929688,74.5999984741211,72.23999786376953,72.86000061035156,1048100
2015-12-14,72.7699966430664,73.94999694824219,71.08999633789062,71.11000061035156,1593600
2015-12-21,71.4800033569336,73.63999938964844,71.20999908447266,73.30000305175781,641700
2015-12-28,72.9800033569336,74.47000122070312,72.62000274658203,72.6500015258789,476900
2016-01-04,72.0,72.20999908447266,69.5999984741211,69.87999725341797,1888200
2016-01-11,69.93000030517578,70.91999816894531,67.0,68.06999969482422,1761900
2016-01-18,68.8499984741211,68.8499984741211,66.33000183105469,68.25,1049800
2016-01-25,67.66999816894531,72.91000366210938,66.63999938964844,72.9000015258789,2620500
2016-02-01,72.29000091552734,74.66000366210938,70.4800033569336,71.12000274658203,1690100
2016-02-08,70.55999755859375,75.6500015258789,69.87999725341797,75.30000305175781,2298800
2016-02-15,76.05000305175781,76.19000244140625,71.55999755859375,72.87999725341797,1721900
2016-02-22,73.47000122070312,74.94999694824219,72.05000305175781,73.33000183105469,1240600
2016-02-29,73.5,76.0999984741211,72.9800033569336,76.0,1253300
2016-03-07,75.87000274658203,76.80999755859375,75.08999633789062,75.77999877929688,1271600
2016-03-14,75.77999877929688,77.76000213623047,74.04000091552734,76.88999938964844,1755300
2016-03-21,76.98999786376953,78.88999938964844,76.63999938964844,77.38999938964844,914300
2016-03-28,77.68000030517578,79.16000366210938,77.37999725341797,79.08999633789062,1805700
2016-04-04,79.2300033569336,79.66999816894531,76.66000366210938,77.36000061035156,1043700
2016-04-11,77.97000122070312,79.30000305175781,76.87000274658203,79.25,1003900
2016-04-18,79.0,80.31999969482422,78.43000030517578,79.68000030517578,1171500
2016-04-25,78.94000244140625,80.36000061035156,75.70999908447266,76.0,2157700
2016-05-02,75.77999877929688,77.33000183105469,75.01000213623047,76.27999877929688,2418700
2016-05-09,76.16999816894531,77.9800033569336,75.66000366210938,76.97000122070312,1236900
2016-05-16,77.08000183105469,77.79000091552734,74.16000366210938,75.33000183105469,1508500
2016-05-23,75.48999786376953,77.19000244140625,74.7300033569336,77.13999938964844,1038400
2016-05-30,77.22000122070312,77.79000091552734,76.06999969482422,77.19999694824219,830000
2016-06-06,77.30999755859375,78.55000305175781,76.79000091552734,78.19999694824219,881000
2016-06-13,77.75,78.08000183105469,75.66000366210938,76.3499984741211,1357900
2016-06-20,77.18000030517578,80.13999938964844,76.54000091552734,76.75,1347100
2016-06-27,75.93000030517578,79.7300033569336,74.2699966430664,79.16999816894531,1307300
2016-07-04,78.8499984741211,79.8499984741211,77.80000305175781,79.79000091552734,687000
2016-07-11,80.08000183105469,81.16999816894531,79.86000061035156,79.91999816894531,774900
2016-07-18,79.91999816894531,80.79000091552734,79.22000122070312,80.45999908447266,645100
2016-07-25,80.04000091552734,81.5,77.11000061035156,78.18000030517578,1711100
2016-08-01,78.13999938964844,78.13999938964844,75.94000244140625,76.58999633789062,1312200
2016-08-08,76.70999908447266,77.58999633789062,75.3499984741211,75.58000183105469,763500
2016-08-15,75.87000274658203,76.98999786376953,75.01000213623047,76.77999877929688,898700
2016-08-22,76.7699966430664,79.06999969482422,76.4000015258789,78.47000122070312,1238600
2016-08-29,78.5,79.18000030517578,77.48999786376953,79.16000366210938,1104800
2016-09-05,79.44000244140625,80.55000305175781,77.43000030517578,77.45999908447266,1161700
2016-09-12,77.0,78.55999755859375,77.0,77.5999984741211,1051700
2016-09-19,77.9000015258789,79.51000213623047,77.83999633789062,78.79000091552734,1365700
2016-09-26,78.69000244140625,78.97000122070312,76.97000122070312,77.41000366210938,1715200
2016-10-03,77.06999969482422,77.68000030517578,75.19000244140625,75.63999938964844,1166500
2016-10-10,76.04000091552734,76.5199966430664,74.55000305175781,76.02999877929688,798000
2016-10-17,76.0199966430664,77.41000366210938,75.38999938964844,77.16000366210938,695300
2016-10-24,78.0999984741211,78.0999984741211,72.58000183105469,73.0199966430664,1156300
2016-10-31,72.93000030517578,73.88999938964844,70.31999969482422,71.41000366210938,1711100
2016-11-07,72.56999969482422,76.06999969482422,70.75,71.8499984741211,2231200
2016-11-14,72.29000091552734,74.26000213623047,72.29000091552734,73.6500015258789,1140400
2016-11-21,73.69999694824219,76.66000366210938,73.33999633789062,76.06999969482422,952300
2016-11-28,76.0999984741211,77.27999877929688,72.45999908447266,74.3499984741211,1852600
2016-12-05,74.83999633789062,75.18000030517578,71.83999633789062,74.75,2084500
2016-12-12,74.8499984741211,75.5999984741211,72.7300033569336,72.93000030517578,1903300
2016-12-19,73.19000244140625,74.16000366210938,72.58000183105469,73.61000061035156,1283800
2016-12-26,73.80999755859375,74.69000244140625,73.25,73.44999694824219,772400
2017-01-02,74.26000213623047,74.72000122070312,72.3499984741211,73.5,1394300
2017-01-09,73.5,74.41000366210938,72.36000061035156,73.5,1101900
2017-01-16,72.87999725341797,73.83000183105469,71.55000305175781,71.63999938964844,1253200
2017-01-23,71.87999725341797,73.94000244140625,71.44000244140625,73.44000244140625,1513500
2017-01-30,73.06999969482422,74.12999725341797,72.0999984741211,73.77999877929688,2062200
2017-02-06,73.52999877929688,76.19999694824219,72.44000244140625,74.79000091552734,2610700
2017-02-13,75.22000122070312,75.44000244140625,72.86000061035156,73.9000015258789,1980400
2017-02-20,73.91000366210938,74.80999755859375,73.63999938964844,74.36000061035156,876100
2017-02-27,74.0999984741211,76.23999786376953,73.94999694824219,76.04000091552734,1639100
2017-03-06,75.47000122070312,77.0,75.18000030517578,76.79000091552734,1967000
2017-03-13,76.80000305175781,77.69000244140625,75.3499984741211,77.08000183105469,1304700
2017-03-20,77.16999816894531,77.87000274658203,76.31999969482422,76.62000274658203,989400
2017-03-27,75.80999755859375,77.37999725341797,75.80999755859375,76.98999786376953,962200
2017-04-03,76.94000244140625,77.45999908447266,75.48999786376953,76.16000366210938,1624900
2017-04-10,75.94000244140625,76.97000122070312,75.76000213623047,75.80000305175781,907400
2017-04-17,76.02999877929688,78.63999938964844,75.87999725341797,77.98999786376953,1221600
2017-04-24,78.97000122070312,80.52999877929688,77.62000274658203,80.30000305175781,1759500
2017-05-01,80.08000183105469,82.16999816894531,78.88999938964844,81.91000366210938,2711400
2017-05-08,82.08000183105469,83.04000091552734,81.72000122070312,82.43000030517578,1523900
2017-05-15,82.43000030517578,82.9800033569336,81.12000274658203,82.36000061035156,1346300
2017-05-22,82.25,84.62999725341797,82.05000305175781,84.37000274658203,991500
2017-05-29,84.12999725341797,86.7300033569336,83.80000305175781,86.33000183105469,953100
2017-06-05,86.0999984741211,87.08999633789062,84.86000061035156,85.6500015258789,1321600
2017-06-12,85.23999786376953,86.7699966430664,84.87000274658203,85.94999694824219,1280000
2017-06-19,86.31999969482422,87.94000244140625,85.93000030517578,86.80000305175781,1233100
2017-06-26,86.97000122070312,87.58999633789062,85.77999877929688,86.86000061035156,1099100
2017-07-03,87.20999908447266,88.55000305175781,86.44000244140625,88.08999633789062,1001800
2017-07-10,87.94999694824219,89.97000122070312,87.4800033569336,89.43000030517578,1153600
2017-07-17,89.5,90.79000091552734,89.0,89.51000213623047,1567700
2017-07-24,88.94000244140625,89.95999908447266,80.83000183105469,82.30999755859375,2548800
2017-07-31,82.23999786376953,83.5,80.69000244140625,82.36000061035156,2264900
2017-08-07,82.55000305175781,82.94999694824219,81.41000366210938,82.13999938964844,1003000
2017-08-14,82.62999725341797,83.83000183105469,81.63999938964844,82.1500015258789,999700
2017-08-21,82.05999755859375,82.7300033569336,80.94999694824219,82.38999938964844,1007000
2017-08-28,82.6500015258789,84.0,81.48999786376953,83.87999725341797,1125200
2017-09-04,83.72000122070312,84.18000030517578,82.31999969482422,83.81999969482422,881400
2017-09-11,84.31999969482422,85.44000244140625,84.0,84.70999908447266,1219400
2017-09-18,84.97000122070312,86.76000213623047,84.73999786376953,85.72000122070312,1015100
2017-09-25,85.75,87.51000213623047,85.3499984741211,86.30999755859375,1144300
2017-10-02,86.80999755859375,88.8499984741211,86.54000091552734,88.58000183105469,1039400
2017-10-09,88.68000030517578,89.37000274658203,88.19000244140625,88.83999633789062,843700
2017-10-16,88.91999816894531,89.37000274658203,87.97000122070312,89.19999694824219,905000
2017-10-23,89.16000366210938,89.68000030517578,85.88999938964844,87.93000030517578,1576000
2017-10-30,87.45999908447266,88.12000274658203,86.12000274658203,86.94000244140625,1489600
2017-11-06,87.0199966430664,87.08000183105469,84.22000122070312,84.91000366210938,1212300
2017-11-13,84.62000274658203,86.5,84.62000274658203,85.6500015258789,931400
2017-11-20,85.61000061035156,86.81999969482422,85.0999984741211,86.25,975400
2017-11-27,86.37000274658203,88.98999786376953,86.37000274658203,87.5999984741211,1195700
2017-12-04,87.79000091552734,89.16000366210938,87.31999969482422,87.9000015258789,1307800
2017-12-11,87.87000274658203,87.87000274658203,85.69999694824219,86.9800033569336,1863400
2017-12-18,87.25,87.88999938964844,85.43000030517578,85.9000015258789,1236400
2017-12-25,85.79000091552734,87.0,85.05999755859375,86.27999877929688,600900
2018-01-01,86.44000244140625,87.93000030517578,85.80000305175781,86.91000366210938,983100
2018-01-08,86.86000061035156,87.76000213623047,85.16000366210938,86.55999755859375,1275600
2018-01-15,86.36000061035156,88.69999694824219,86.01000213623047,88.61000061035156,902700
2018-01-22,88.61000061035156,89.5,86.3499984741211,89.13999938964844,1329100
2018-01-29,88.7300033569336,89.2300033569336,85.54000091552734,85.80000305175781,1556200
2018-02-05,85.0999984741211,86.0,79.97000122070312,82.16000366210938,1806900
2018-02-12,82.55999755859375,92.31999969482422,81.58999633789062,91.83000183105467,2585900
2018-02-19,91.23999786376952,92.27999877929688,89.93000030517578,90.98999786376952,1159900
2018-02-26,91.27999877929688,91.4800033569336,88.30000305175781,89.68000030517578,1356200
2018-03-05,89.30999755859375,91.13999938964844,89.27999877929688,90.87000274658205,1495600
2018-03-12,90.6999969482422,92.0999984741211,89.43000030517578,90.1500015258789,1369900
2018-03-19,90.05999755859375,90.48999786376952,86.69000244140625,86.7699966430664,1145800
2018-03-26,87.66000366210938,90.33999633789062,87.06999969482422,89.83000183105469,1013400
2018-04-02,89.37000274658203,90.8499984741211,86.8499984741211,88.5,1436100
2018-04-09,89.1500015258789,93.33000183105467,88.5999984741211,92.75,1662000
2018-04-16,93.02999877929688,96.38999938964844,92.95999908447266,94.44000244140624,1433700
2018-04-23,94.70999908447266,95.43000030517578,91.87999725341795,93.45999908447266,1714600
2018-04-30,93.7300033569336,94.0,90.83999633789062,92.26000213623048,2866800
2018-05-07,92.37000274658205,94.31999969482422,91.37000274658205,94.29000091552734,1626000
2018-05-14,94.19000244140624,94.70999908447266,91.58999633789062,93.55999755859376,1656400
2018-05-21,94.0199966430664,94.9499969482422,93.36000061035156,94.08000183105467,764500
2018-05-28,93.45999908447266,94.41000366210938,92.19000244140624,92.7699966430664,798000
2018-06-04,93.11000061035156,94.5,92.04000091552734,93.66000366210938,1548800
2018-06-11,93.79000091552734,95.37000274658205,93.43000030517578,94.91999816894533,1991500
2018-06-18,94.56999969482422,95.08000183105467,92.33999633789062,92.62999725341795,1944600
2018-06-25,92.7699966430664,94.12000274658205,91.41999816894533,93.37999725341795,1498300
2018-07-02,92.91000366210938,95.02999877929688,92.45999908447266,94.08000183105467,903400
2018-07-09,94.4499969482422,96.83000183105467,94.4499969482422,94.87000274658205,1027600
2018-07-16,94.7699966430664,96.54000091552734,93.16000366210938,95.77999877929688,843300
2018-07-23,95.94000244140624,103.02999877929688,94.0500030517578,102.9000015258789,1399700
2018-07-30,103.5199966430664,104.5,99.94000244140624,104.0999984741211,2048900
2018-08-06,104.01000213623048,104.9499969482422,102.16000366210938,102.37999725341795,1445000
2018-08-13,102.23999786376952,103.47000122070312,100.05999755859376,102.76000213623048,1112900
2018-08-20,102.91999816894533,104.13999938964844,102.5999984741211,103.8000030517578,763200
2018-08-27,103.79000091552734,105.7699966430664,103.7699966430664,104.70999908447266,974900
2018-09-03,105.31999969482422,109.69000244140624,104.58000183105467,107.9000015258789,1144600
2018-09-10,108.38999938964844,112.16000366210938,107.54000091552734,111.97000122070312,1166800
2018-09-17,112.3000030517578,112.30999755859376,109.66999816894533,110.31999969482422,1649100
2018-09-24,110.1999969482422,111.47000122070312,107.5500030517578,107.73999786376952,1933000
2018-10-01,108.0500030517578,109.1999969482422,106.3000030517578,107.16999816894533,1274200
2018-10-08,107.12000274658205,107.8499984741211,100.33999633789062,101.6500015258789,1610000
2018-10-15,101.66999816894533,106.08999633789062,101.0500030517578,104.31999969482422,1363500
2018-10-22,104.61000061035156,104.73999786376952,99.30999755859376,100.36000061035156,1900700
2018-10-29,101.31999969482422,105.33000183105467,95.05999755859376,103.8000030517578,2358900
2018-11-05,103.98999786376952,105.8000030517578,101.25,104.29000091552734,1798500
2018-11-12,104.16000366210938,107.1500015258789,101.20999908447266,106.27999877929688,1227900
2018-11-19,106.1999969482422,106.6500015258789,102.9800033569336,103.9000015258789,736500
2018-11-26,104.72000122070312,104.98999786376952,101.68000030517578,104.0500030517578,1341700
2018-12-03,105.2300033569336,105.51000213623048,98.3499984741211,99.7699966430664,1094100
2018-12-10,99.43000030517578,101.2699966430664,98.22000122070312,100.33999633789062,949500
2018-12-17,99.83999633789062,100.6500015258789,93.51000213623048,93.5500030517578,1650100
2018-12-24,92.86000061035156,93.91000366210938,89.66999816894531,92.6999969482422,1467600
2018-12-31,92.81999969482422,94.06999969482422,88.26000213623047,91.06999969482422,1835200
2019-01-07,90.5999984741211,94.81999969482422,90.58000183105467,94.7300033569336,1554700
2019-01-14,94.27999877929688,97.97000122070312,93.73999786376952,97.69000244140624,1114400
2019-01-21,97.41999816894533,98.3499984741211,95.12000274658205,97.38999938964844,821900
2019-01-28,97.38999938964844,99.9800033569336,97.23999786376952,99.5500030517578,1288100
2019-02-04,99.41999816894533,102.30999755859376,98.5199966430664,101.38999938964844,1018400
2019-02-11,101.87999725341795,103.51000213623048,101.23999786376952,101.94000244140624,1168600
2019-02-18,101.83999633789062,104.0,100.63999938964844,102.0500030517578,1472900
2019-02-25,102.2699966430664,102.5999984741211,100.69000244140624,100.80999755859376,1571300
2019-03-04,101.25,102.2699966430664,99.20999908447266,100.47000122070312,960400
2019-03-11,100.5999984741211,103.58000183105467,100.56999969482422,103.0500030517578,1087600
2019-03-18,103.22000122070312,105.68000030517578,102.8499984741211,103.83000183105467,910100
2019-03-25,103.5500030517578,106.68000030517578,103.0199966430664,106.38999938964844,1073500
2019-04-01,106.91000366210938,108.95999908447266,106.20999908447266,108.73999786376952,955200
2019-04-08,108.6500015258789,110.6999969482422,107.5199966430664,110.30999755859376,914000
2019-04-15,110.33999633789062,110.5,107.3000030517578,108.20999908447266,753200
2019-04-22,108.25,111.6500015258789,108.25,111.41999816894533,810100
2019-04-29,111.37999725341795,114.66000366210938,109.93000030517578,113.8499984741211,1406700
2019-05-06,112.54000091552734,115.5199966430664,112.18000030517578,113.5999984741211,1076300
2019-05-13,111.91000366210938,114.5,111.29000091552734,113.77999877929688,779800
2019-05-20,113.19000244140624,113.9800033569336,112.04000091552734,112.93000030517578,716000
2019-05-27,113.04000091552734,113.7300033569336,111.5,113.2699966430664,823500
2019-06-03,113.41000366210938,122.5999984741211,113.41000366210938,121.91999816894533,1920400
2019-06-10,122.19000244140624,124.4499969482422,119.56999969482422,120.08999633789062,1246000
2019-06-17,120.04000091552734,121.0,117.43000030517578,119.37999725341795,1623500
2019-06-24,119.5,124.75,118.4800033569336,124.33999633789062,1803900
2019-07-01,125.0,126.1999969482422,123.01000213623048,124.61000061035156,1168300
2019-07-08,125.5,125.79000091552734,123.01000213623048,123.41000366210938,1071900
2019-07-15,123.1500015258789,124.9499969482422,122.3000030517578,123.4000015258789,1087600
2019-07-22,123.51000213623048,124.7699966430664,122.68000030517578,124.48999786376952,1024400
2019-07-29,124.4499969482422,125.66000366210938,114.83999633789062,118.0199966430664,1970100
2019-08-05,116.44000244140624,124.0,116.25,121.08000183105467,1648300
2019-08-12,121.0199966430664,121.80999755859376,117.9499969482422,120.25,1163900
2019-08-19,121.1999969482422,121.4800033569336,118.45999908447266,120.26000213623048,1169900
2019-08-26,120.72000122070312,123.44000244140624,119.91000366210938,122.22000122070312,1009500
2019-09-02,120.80999755859376,123.20999908447266,118.56999969482422,120.87999725341795,892200
2019-09-09,121.56999969482422,121.56999969482422,116.12000274658205,118.4000015258789,1156000
2019-09-16,117.72000122070312,119.0199966430664,115.87000274658205,118.0500030517578,1494300
2019-09-23,117.61000061035156,119.68000030517578,117.61000061035156,118.66999816894533,820500
2019-09-30,118.9499969482422,119.7300033569336,113.77999877929688,117.33000183105467,992100
2019-10-07,116.69000244140624,118.0,114.51000213623048,116.33000183105467,888800
2019-10-14,116.31999969482422,118.0,114.4000015258789,117.77999877929688,901000
2019-10-21,118.37000274658205,119.11000061035156,116.5,117.87999725341795,575900
2019-10-28,117.95999908447266,119.62999725341795,109.54000091552734,110.79000091552734,1318200
2019-11-04,111.01000213623048,111.76000213623048,108.41000366210938,109.0,1801700
2019-11-11,108.4800033569336,110.7300033569336,108.0199966430664,109.95999908447266,1283600
2019-11-18,109.91999816894533,112.0500030517578,109.87999725341795,110.12000274658205,1968100
2019-11-25,110.26000213623048,113.58000183105467,110.16999816894533,112.12000274658205,721100
2019-12-02,112.5199966430664,113.4800033569336,111.13999938964844,112.08000183105467,1370100
2019-12-09,112.30999755859376,115.38999938964844,111.33999633789062,113.97000122070312,1403000
2019-12-16,114.45999908447266,115.13999938964844,112.36000061035156,114.95999908447266,1292700
2019-12-23,114.93000030517578,115.63999938964844,113.8000030517578,115.0199966430664,406800
2019-12-30,114.94000244140624,116.4800033569336,112.80999755859376,114.04000091552734,1087900
2020-01-06,113.66000366210938,116.16999816894533,112.73999786376952,115.79000091552734,1374000
2020-01-13,115.48999786376952,118.61000061035156,115.13999938964844,117.31999969482422,1028700
2020-01-20,116.66000366210938,119.0199966430664,114.7699966430664,117.12000274658205,845100
2020-01-27,115.54000091552734,117.26000213623048,114.33000183105467,115.51000213623048,1082800
2020-02-03,115.61000061035156,118.9499969482422,115.51000213623048,116.6999969482422,1165400
2020-02-10,116.41999816894533,117.75,113.69000244140624,116.66999816894533,1205600
2020-02-17,116.47000122070312,116.62999725341795,109.16000366210938,111.9800033569336,1659500
2020-02-24,110.5,111.20999908447266,99.31999969482422,101.06999969482422,2955100
2020-03-02,101.62000274658205,107.62999725341795,100.80999755859376,107.3000030517578,1877400
2020-03-09,102.73999786376952,105.0,87.5,96.38999938964844,3264300
2020-03-16,87.4000015258789,101.22000122070312,87.4000015258789,92.51000213623048,3107100
2020-03-23,92.05999755859376,97.33999633789062,79.83999633789062,94.0,2739600
2020-03-30,94.97000122070312,102.75,93.36000061035156,94.19000244140624,2088900
2020-04-06,97.06999969482422,108.02999877929688,97.06999969482422,107.2699966430664,1609000
2020-04-13,106.98999786376952,107.43000030517578,99.68000030517578,102.94000244140624,1465300
2020-04-20,101.86000061035156,107.94000244140624,101.12999725341795,104.12000274658205,2492900
2020-04-27,109.33000183105467,114.66000366210938,104.70999908447266,106.13999938964844,2205700
2020-05-04,105.52999877929688,107.98999786376952,104.76000213623048,107.52999877929688,1433000
2020-05-11,106.66000366210938,107.51000213623048,99.11000061035156,101.5,1567000
2020-05-18,104.06999969482422,105.75,102.9499969482422,105.0999984741211,1050500
2020-05-25,107.33999633789062,113.33000183105467,106.77999877929688,111.38999938964844,1071500
2020-06-01,111.27999877929688,114.27999877929688,110.5999984741211,113.4000015258789,1116500
2020-06-08,112.81999969482422,114.0,103.08000183105467,105.36000061035156,1527600
2020-06-15,103.44000244140624,109.08999633789062,103.06999969482422,107.5999984741211,1218800
2020-06-22,106.94000244140624,108.69000244140624,103.77999877929688,107.72000122070312,2091900
2020-06-29,108.23999786376952,115.01000213623048,107.88999938964844,114.97000122070312,1130400
2020-07-06,115.98999786376952,116.66000366210938,111.41000366210938,114.9499969482422,1435000
2020-07-13,114.95999908447266,119.70999908447266,113.2699966430664,119.4000015258789,1311400
2020-07-20,119.4000015258789,119.87000274658205,117.41000366210938,118.8499984741211,1523500
2020-07-27,118.83000183105467,120.4499969482422,111.22000122070312,115.1999969482422,1769500
2020-08-03,116.8499984741211,120.66999816894533,114.8499984741211,119.25,1139500
2020-08-10,119.58000183105467,119.63999938964844,116.52999877929688,118.48999786376952,939000
2020-08-17,119.13999938964844,119.91999816894533,116.4000015258789,117.8000030517578,836200
2020-08-24,118.1999969482422,120.62000274658205,117.55999755859376,118.12999725341795,963400
2020-08-31,118.58000183105467,122.44000244140624,116.48999786376952,118.72000122070312,921600
2020-09-07,118.12999725341795,118.91000366210938,116.04000091552734,118.36000061035156,696700
2020-09-14,119.37000274658205,120.05999755859376,114.2300033569336,115.04000091552734,1396800
2020-09-21,113.5999984741211,114.66999816894533,111.16000366210938,112.0999984741211,1244600
2020-09-28,113.16999816894533,114.97000122070312,111.75,112.8499984741211,993300
2020-10-05,113.36000061035156,118.38999938964844,113.20999908447266,116.80999755859376,835200
2020-10-12,117.0500030517578,118.91000366210938,114.22000122070312,116.3499984741211,610600
2020-10-19,116.63999938964844,118.97000122070312,114.58000183105467,118.3499984741211,709700
2020-10-26,117.3499984741211,117.48999786376952,110.33999633789062,114.08999633789062,1066600
2020-11-02,115.16999816894533,124.61000061035156,114.66999816894533,123.5999984741211,1014400
2020-11-09,127.62000274658205,128.86000061035156,122.11000061035156,125.06999969482422,1109900
2020-11-16,126.27999877929688,128.36000061035156,125.56999969482422,127.80999755859376,1022900
2020-11-23,128.05999755859375,129.1199951171875,125.7699966430664,127.23999786376952,623400
2020-11-30,126.79000091552734,128.5800018310547,125.1500015258789,127.68000030517578,787500
2020-12-07,127.98999786376952,131.10000610351562,127.63999938964844,130.4499969482422,834800
2020-12-14,131.0500030517578,134.6699981689453,128.1999969482422,134.10000610351562,1583400
2020-12-21,132.77999877929688,136.3699951171875,131.5,135.6999969482422,744800
2020-12-28,136.19000244140625,137.36000061035156,134.83999633789062,136.88999938964844,463600
2021-01-04,135.9199981689453,140.6199951171875,133.5399932861328,139.07000732421875,1198500
2021-01-11,139.5,141.3300018310547,136.13999938964844,138.8300018310547,890000
2021-01-18,139.5800018310547,141.1300048828125,137.11000061035156,138.19000244140625,912500
2021-01-25,138.16000366210938,140.0,131.82000732421875,132.97000122070312,1043500
2021-02-01,134.1300048828125,140.72999572753906,131.80999755859375,140.66000366210938,941000
2021-02-08,141.25,144.75999450683594,140.52999877929688,144.6300048828125,806400
2021-02-15,144.61000061035156,144.72000122070312,131.61000061035156,132.24000549316406,1077600
2021-02-22,131.25,131.57000732421875,126.77999877929688,130.07000732421875,1815900
2021-03-01,130.77999877929688,134.13999938964844,129.47000122070312,134.08999633789062,1569400
2021-03-08,134.8300018310547,141.24000549316406,134.10000610351562,140.77000427246094,1020900
2021-03-15,141.77999877929688,143.02999877929688,139.0399932861328,139.30999755859375,1606900
2021-03-22,138.97000122070312,144.82000732421875,138.25999450683594,144.82000732421875,1431000
2021-03-29,144.24000549316406,145.89999389648438,141.22999572753906,143.8699951171875,1156900
2021-04-05,144.9499969482422,145.99000549316406,142.19000244140625,145.1999969482422,900300
2021-04-12,144.67999267578125,149.58999633789062,144.5,148.0800018310547,954100
2021-04-19,148.22999572753906,152.36000061035156,146.6699981689453,151.4499969482422,1051900
2021-04-26,151.75,153.07000732421875,147.89999389648438,150.80999755859375,1192600
2021-05-03,152.16000366210938,157.92999267578125,151.74000549316406,157.55999755859375,1033800
2021-05-10,157.74000549316406,158.97000122070312,151.33999633789062,153.5399932861328,1173000
2021-05-17,153.11000061035156,154.08999633789062,148.60000610351562,149.6300048828125,728800
2021-05-24,150.47000122070312,150.72999572753906,146.4199981689453,147.30999755859375,775300
2021-05-31,147.97999572753906,148.80999755859375,144.74000549316406,145.55999755859375,832200
2021-06-07,145.52999877929688,146.25,141.1199951171875,145.8300018310547,910800
2021-06-14,146.0,146.0,139.91000366210938,140.10000610351562,1044500
2021-06-21,140.97999572753906,142.66000366210938,139.7899932861328,140.9199981689453,1442100
2021-06-28,141.0800018310547,141.97000122070312,139.72999572753906,140.41000366210938,904400
2021-07-05,140.39999389648438,141.4600067138672,138.63999938964844,141.17999267578125,877300
2021-07-12,140.82000732421875,141.2100067138672,137.32000732421875,139.0399932861328,911000
2021-07-19,138.0399932861328,139.64999389648438,134.2899932861328,136.24000549316406,1123800
2021-07-26,136.75999450683594,140.00999450683594,128.17999267578125,128.9199981689453,1665000
2021-08-02,128.44000244140625,130.5800018310547,126.31999969482422,128.42999267578125,1509000
2021-08-09,128.6999969482422,133.88999938964844,128.6199951171875,133.0500030517578,1225600
2021-08-16,132.58999633789062,133.91000366210938,131.39999389648438,133.52000427246094,642800
2021-08-23,134.1699981689453,134.9499969482422,132.22000122070312,134.52999877929688,627100
2021-08-30,135.16000366210938,136.22999572753906,134.13999938964844,135.14999389648438,690400
2021-09-06,134.72000122070312,134.72000122070312,125.81999969482422,125.83999633789062,1025500
2021-09-13,125.45999908447266,126.41999816894533,120.72000122070312,121.2300033569336,1421900
2021-09-20,119.76000213623048,122.31999969482422,119.44000244140624,120.36000061035156,1113200
2021-09-27,120.18000030517578,122.31999969482422,118.61000061035156,121.58000183105467,1249700
2021-10-04,121.5,126.04000091552734,120.4499969482422,124.51000213623048,1202600
2021-10-11,124.47000122070312,129.25,123.8499984741211,128.22000122070312,957600
2021-10-18,127.63999938964844,129.7899932861328,126.91000366210938,127.7699966430664,815700
2021-10-25,127.95999908447266,128.8800048828125,119.9000015258789,120.77999877929688,1522200
2021-11-01,119.9800033569336,131.66000366210938,119.9800033569336,131.5,1809300
2021-11-08,131.9499969482422,132.27000427246094,128.72999572753906,131.49000549316406,882000
2021-11-15,132.4199981689453,135.80999755859375,129.47999572753906,130.14999389648438,1332400
2021-11-22,130.5,131.49000549316406,126.33999633789062,126.61000061035156,817700
2021-11-29,128.0500030517578,128.3000030517578,116.66999816894533,118.8000030517578,2554500
2021-12-06,120.2300033569336,121.73999786376952,118.83000183105467,119.73999786376952,1565900
2021-12-13,119.47000122070312,120.62000274658205,115.66999816894533,115.88999938964844,1863000
2021-12-20,114.81999969482422,116.55999755859376,112.37000274658205,116.33000183105467,1197300
2021-12-27,116.63999938964844,123.5,116.5999984741211,122.4800033569336,2207500
2022-01-03,122.44000244140624,124.13999938964844,119.29000091552734,123.68000030517578,1506800
2022-01-10,122.9499969482422,123.88999938964844,119.87000274658205,121.18000030517578,1112700
2022-01-17,120.61000061035156,122.30999755859376,115.83000183105467,116.37999725341795,1134600
2022-01-24,115.58999633789062,118.3000030517578,112.4499969482422,115.0500030517578,2928800
2022-01-31,115.01000213623048,118.93000030517578,113.66000366210938,115.26000213623048,1474300
2022-02-07,115.62000274658205,117.66000366210938,112.87000274658205,113.70999908447266,1261100
2022-02-14,113.70999908447266,121.5199966430664,112.44000244140624,118.44000244140624,1625700
2022-02-21,118.5,121.5999984741211,114.72000122070312,120.97000122070312,1367700
2022-02-28,119.47000122070312,122.94000244140624,117.41000366210938,120.19000244140624,1479900
2022-03-07,119.30999755859376,120.3499984741211,110.04000091552734,112.3000030517578,1405200
2022-03-14,112.81999969482422,119.11000061035156,112.7699966430664,117.73999786376952,1090200
2022-03-21,117.7300033569336,120.45999908447266,114.0,117.23999786376952,1218100
2022-03-28,117.43000030517578,119.83000183105467,115.01000213623048,119.0199966430664,1120600
2022-04-04,118.72000122070312,122.2300033569336,115.1999969482422,121.41000366210938,1343100
2022-04-11,121.12999725341795,122.3000030517578,116.4000015258789,117.4000015258789,678900
2022-04-18,116.77999877929688,120.3499984741211,113.51000213623048,116.62000274658205,858000
2022-04-25,116.5,116.5,109.5500030517578,114.83000183105467,1835800
2022-05-02,115.41999816894533,116.97000122070312,109.76000213623048,111.2300033569336,1540100
2022-05-09,110.0,111.0999984741211,103.25,107.51000213623048,1602500
2022-05-16,107.29000091552734,110.38999938964844,97.19000244140624,99.72000122070312,1992900
2022-05-23,100.9499969482422,108.93000030517578,99.66999816894533,108.88999938964844,1972200
2022-05-30,108.08000183105467,110.02999877929688,105.62999725341795,108.8000030517578,905200
2022-06-06,109.58999633789062,110.80999755859376,103.12999725341795,105.1999969482422,958600
2022-06-13,102.87000274658205,103.2300033569336,94.02999877929688,97.5,1842200
2022-06-20,97.9800033569336,102.6500015258789,96.23999786376952,102.62000274658205,943700
2022-06-27,102.62000274658205,104.66999816894533,101.33999633789062,104.48999786376952,1154500
2022-07-04,103.33999633789062,103.5500030517578,100.0,100.01000213623048,945900
2022-07-11,99.80999755859376,101.8499984741211,98.33999633789062,100.01000213623048,1068800
2022-07-18,100.56999969482422,103.9800033569336,97.6999969482422,103.5999984741211,1627700
2022-07-25,103.72000122070312,109.48999786376952,101.87999725341795,107.76000213623048,1433000
2022-08-01,106.3000030517578,108.81999969482422,105.08999633789062,105.6500015258789,1214600
2022-08-08,106.12999725341795,111.29000091552734,106.01000213623048,111.08000183105467,993800
2022-08-15,110.68000030517578,112.43000030517578,109.5500030517578,110.16000366210938,958000
2022-08-22,109.16999816894533,109.5500030517578,104.16999816894533,104.41000366210938,824200
2022-08-29,103.97000122070312,104.76000213623048,100.72000122070312,101.43000030517578,894200
2022-09-05,101.26000213623048,106.81999969482422,99.80999755859376,106.41000366210938,658500
2022-09-12,107.18000030517578,108.2699966430664,101.4000015258789,102.63999938964844,1679300
2022-09-19,101.8499984741211,104.5500030517578,96.93000030517578,98.08000183105467,999500
2022-09-26,97.5,98.8000030517578,94.87000274658205,95.02999877929688,1517500
2022-10-03,96.45999908447266,99.83000183105467,93.5999984741211,93.9800033569336,1059500
2022-10-10,94.38999938964844,95.91999816894533,90.2300033569336,95.08000183105467,1250800
2022-10-17,96.0199966430664,99.9800033569336,94.52999877929688,97.5199966430664,1347700
2022-10-24,97.9000015258789,104.12000274658205,95.97000122070312,101.12999725341795,1384900
2022-10-31,99.95999908447266,100.5999984741211,92.5500030517578,98.7699966430664,1430000
2022-11-07,99.19000244140624,105.08000183105467,97.9800033569336,104.25,1057700
2022-11-14,103.61000061035156,107.01000213623048,103.61000061035156,106.04000091552734,1026100
2022-11-21,106.0999984741211,106.77999877929688,104.93000030517578,105.91000366210938,794100
2022-11-28,105.04000091552734,108.5500030517578,101.5,108.0500030517578,1011800
2022-12-05,106.86000061035156,108.9800033569336,105.37000274658205,108.05999755859376,1061900
2022-12-12,108.45999908447266,111.11000061035156,106.38999938964844,107.44000244140624,1610600
2022-12-19,107.31999969482422,110.8000030517578,105.77999877929688,110.01000213623048,1226900
2022-12-26,109.9000015258789,111.91000366210938,109.01000213623048,109.9800033569336,565400
2023-01-02,110.58000183105467,114.4000015258789,109.12000274658205,114.05999755859376,947900
2023-01-09,114.62999725341795,115.68000030517578,112.4000015258789,113.97000122070312,822900
2023-01-16,114.18000030517578,114.5999984741211,110.33000183105467,113.29000091552734,681600
2023-01-23,113.1999969482422,113.7300033569336,110.48999786376952,112.7300033569336,862600
2023-01-30,111.70999908447266,118.33999633789062,111.45999908447266,115.41999816894533,1577700
2023-02-06,114.55999755859376,115.5,107.88999938964844,109.20999908447266,906400
2023-02-13,109.4000015258789,121.27999877929688,108.18000030517578,116.69000244140624,1425500
2023-02-20,116.5,116.5,112.98999786376952,114.7699966430664,1133100
2023-02-27,115.83999633789062,120.25,115.51000213623048,120.25,1101900
2023-03-06,120.12999725341795,120.19000244140624,112.27999877929688,112.55999755859376,1185800
2023-03-13,111.4499969482422,115.26000213623048,109.9499969482422,110.76000213623048,1366100
2023-03-20,111.8000030517578,114.22000122070312,110.0199966430664,112.97000122070312,770000
2023-03-27,113.45999908447266,118.2699966430664,113.13999938964844,118.19000244140624,852900
2023-04-03,117.93000030517578,119.33999633789062,116.77999877929688,119.05999755859376,743200
2023-04-10,118.37999725341795,120.05999755859376,117.88999938964844,119.1999969482422,775000
2023-04-17,119.5,121.06999969482422,118.0500030517578,120.58999633789062,1295300
2023-04-24,120.86000061035156,121.41999816894533,114.62999725341795,118.51000213623048,1592900
2023-05-01,119.41000366210938,122.5,115.7300033569336,121.6999969482422,1300200
2023-05-08,121.86000061035156,122.33999633789062,118.5,120.79000091552734,985500
2023-05-15,120.58999633789062,121.06999969482422,117.45999908447266,119.08999633789062,748600
2023-05-22,118.66999816894533,119.5199966430664,112.9499969482422,114.16000366210938,1089800
2023-05-29,114.20999908447266,114.75,111.69000244140624,114.16000366210938,1020600
2023-06-05,113.8000030517578,115.98999786376952,112.87999725341795,114.80999755859376,1333900
2023-06-12,114.68000030517578,117.20999908447266,114.3000030517578,117.1500015258789,2256700
2023-06-19,116.87999725341795,116.9499969482422,112.06999969482422,112.83000183105467,1247000
2023-06-26,113.05999755859376,116.27999877929688,112.4800033569336,115.86000061035156,1071100
2023-07-03,115.41000366210938,117.0199966430664,111.62999725341795,113.79000091552734,1081000
2023-07-10,113.30999755859376,118.83999633789062,113.01000213623048,118.3499984741211,1135900
2023-07-17,118.4000015258789,120.37000274658205,117.16000366210938,119.83999633789062,1030600
2023-07-24,120.0199966430664,126.98999786376952,118.70999908447266,123.77999877929688,1641800
2023-07-31,123.5199966430664,123.93000030517578,119.9800033569336,120.63999938964844,1753400
2023-08-07,120.7300033569336,121.66000366210938,119.70999908447266,121.12000274658205,410400
